%time,field
13262000000,-0.000530023061154
13267000000,-0.000498949655722
13277000000,-0.000472954836297
13287000000,-0.000368713742708
13297000000,-0.000192743255672
13308000000,-3.10340555541e-05
13316000000,0.000124237777541
13327000000,0.000296839430321
13337000000,0.000452094929015
13346000000,0.000590204277104
13357000000,0.000772199171859
13367000000,0.000949493866144
13373000000,0.00110689022292
13387000000,0.00124645747165
13395000000,0.00137977768123
13407000000,0.00149521937879
13418000000,0.00159398445561
13427000000,0.00152538466365
13437000000,0.00141489707885
13447000000,0.00130458982869
13457000000,0.0011999725757
13467000000,0.0011116400061
13477000000,0.00102819599237
13487000000,0.000950469277239
13497000000,0.000880315050085
13507000000,0.000818545769457
13517000000,0.000763159299122
13527000000,0.000714042772302
13537000000,0.00066997382483
13548000000,0.000631041659254
13558000000,0.000597559937873
13567000000,0.000569120664573
13577000000,0.000542898178549
13588000000,0.00051865195783
13597000000,0.000498438037794
13606000000,0.00048185420076
13618000000,0.000463450671708
13629000000,0.000446081303788
13637000000,0.000431661429332
13647000000,0.000417164239264
13656000000,0.00039898454753
13666000000,0.000383434474989
13677000000,0.000370305539581
13687000000,0.000354628630956
13697000000,0.000336527361327
13708000000,0.000320795463003
13716000000,0.000307281746196
13727000000,0.000289082842771
13737000000,0.000266591326978
13747000000,0.000246659804809
13758000000,0.000229190726118
13767000000,0.0002011358533
13778000000,0.000174633490141
13788000000,0.000151106592037
13798000000,0.000114608643714
13805000000,-5.71332356212e-05
13816000000,-0.000216794373148
13832000000,-0.00036335720613
13837000000,-0.000483893918098
13845000000,-0.000482546223152
13854000000,-0.000475208537537
13855000000,-0.000526840281902
13876000000,-0.000715849739017
13887000000,-0.000889389297317
13897000000,-0.000977215513892
13903000000,-0.000951161304752
13909000000,-0.000920198404025
13909000000,-0.000886061864435
13936000000,-0.000863588199006
13941000000,-0.000843066080524
13956000000,-0.000823887037461
13967000000,-0.000807535713734
13977000000,-0.00079123018926
13986000000,-0.000782776825035
13999000000,-0.000775353053464
14006000000,-0.000769238272303
14016000000,-0.000765741576579
14028000000,-0.000762500210844
14039000000,-0.000760299456044
14048000000,-0.000759456166425
14057000000,-0.000758769298704
14065000000,-0.000758221659022
14076000000,-0.000758149100986
14088000000,-0.000758245000272
14098000000,-0.00075839905145
14106000000,-0.000758594295674
14117000000,-0.000757368125985
14125000000,-0.000755299874169
14135000000,-0.000753393318435
14145000000,-0.000751656670573
14155000000,-0.000669964417341
14166000000,-0.000584597577493
14175000000,-0.000505445970307
14188000000,-0.000432963775125
14197000000,-0.000336042597911
14208000000,-0.000234613714363
14218000000,-0.00014290053566
14229000000,-1.89769123302e-05
14237000000,0.000120201799008
14248000000,0.000245719276865
14257000000,0.000397936252012
14270000000,0.000534508406825
14273000000,0.000661367719092
14287000000,0.000795574089981
14297000000,0.000913940703714
14305000000,0.00101797221556
14317000000,0.00111473692806
14327000000,0.00119780379345
14338000000,0.00126821620286
14339000000,0.00123834952139
14340000000,0.00111683898474
14368000000,0.000997435384629
14377000000,0.000883899544649
14386000000,0.000789721266635
14397000000,0.000701783152775
14407000000,0.000620731356651
14417000000,0.00054783547563
14428000000,0.000484384123394
14439000000,0.000428021405621
14447000000,0.00037850603446
14454000000,0.000335317212835
14467000000,0.000298054241027
14476000000,0.000266440437965
14487000000,0.00023866352195
14497000000,0.000215479403755
14505000000,0.000196550155816
14516000000,0.000174542841437
14526000000,0.000140670547981
14537000000,0.000111099799399
14548000000,8.5582105285e-05
14557000000,6.07753610047e-05
14568000000,3.66264803633e-05
14577000000,1.59988703367e-05
14586000000,-1.39301132682e-06
14597000000,-2.24925841718e-05
14607000000,-4.21711709936e-05
14618000000,-5.89449534614e-05
14628000000,-7.3054049905e-05
14635000000,-6.04696465121e-05
14648000000,-4.45564705059e-05
14658000000,-2.85589218828e-05
14665000000,-1.34957675637e-05
14672000000,-1.53027679472e-06
14688000000,9.83993634965e-06
14696000000,2.04870067624e-05
14706000000,3.03263535022e-05
14717000000,3.81294828831e-05
14724000000,4.4997109761e-05
14736000000,5.10800288044e-05
14748000000,5.64092449559e-05
14757000000,5.9761221557e-05
14766000000,6.25252348709e-05
14772000000,6.47644149959e-05
14786000000,6.61320701025e-05
14796000000,6.61766107408e-05
14806000000,6.59546315733e-05
14816000000,6.55286326868e-05
14823000000,6.47661621915e-05
14823000000,6.22822895678e-05
14843000000,5.9842379889e-05
14858000000,5.74922277335e-05
14868000000,5.42296130788e-05
14868000000,5.01656387264e-05
14868000000,4.63962250986e-05
14868000000,4.29437531703e-05
14868000000,3.76425026702e-05
14917000000,3.28014815539e-05
14922000000,2.84324959703e-05
14936000000,2.33423320337e-05
14948000000,1.76186307622e-05
14955000000,1.24842102829e-05
14963000000,7.92974939023e-06
14964000000,2.19749177358e-06
14985000000,-3.63612350597e-06
14996000000,-8.80808261213e-06
15006000000,-1.33440140566e-05
15013000000,-1.87784873201e-05
15025000000,-2.50233166889e-05
15035000000,-3.05557930313e-05
15046000000,-3.54026423817e-05
15057000000,-4.17136810527e-05
15067000000,-4.78159441536e-05
15079000000,-5.31820042837e-05
15086000000,-5.78498849932e-05
15096000000,-6.41870334119e-05
15106000000,-7.00287132123e-05
15106000000,-7.51398463861e-05
15106000000,-8.02325370646e-05
15106000000,-8.61705255848e-05
15142000000,-9.13761807689e-05
15148000000,-9.66839391217e-05
15165000000,-0.000102459557974
15185000000,-0.000107513208099
15191000000,-0.000111884121083
15200000000,-0.000116139941894
15205000000,-0.000120287226997
15216000000,-0.000123834283576
15226000000,-0.000126830392783
15236000000,-0.000130033063088
15251000000,-0.000133037965018
15264000000,-0.000135574127776
15268000000,-0.000137683516
15281000000,-0.000139640146021
15289000000,-0.000141240489697
15297000000,-0.000142524630641
15310000000,-0.000143457003402
15317000000,-0.00014385982124
15327000000,-0.000144077868454
15329000000,-0.000144144791877
15329000000,-0.000143498615299
15359000000,-0.000141927757665
15367000000,-0.000140378486104
15372000000,-0.000138882500849
15388000000,-0.000135941926326
15390000000,-0.00013281281287
15390000000,-0.000129911661982
15418000000,-0.000126598658435
15427000000,-0.000121020504504
15436000000,-0.000115894002891
15448000000,-0.000111239519166
15458000000,-0.000104935123546
15467000000,-9.78443273251e-05
15478000000,-9.14364968845e-05
15488000000,-8.57095157997e-05
15497000000,-4.16549905478e-05
15499000000,9.09763096992e-06
15499000000,5.59654217328e-05
15527000000,0.000102613415125
15538000000,0.000150522754554
15548000000,0.000193644282224
15555000000,0.000232027472998
15566000000,0.000265818254323
15580000000,0.000320530887798
15589000000,0.000369601869198
15598000000,0.000413126299403
15608000000,0.000450074244804
15618000000,0.000481513871847
15628000000,0.000508334634187
15637000000,0.000530915637721
15648000000,0.000549136219155
15656000000,0.00056381088214
15667000000,0.000575463850598
15678000000,0.000582261587565
15690000000,0.000567516825251
15696000000,0.000552150736016
15707000000,0.000536639542937
15717000000,0.000512528584215
15721000000,0.000476552811073
15745000000,0.000442716446513
15745000000,0.000410029287157
15760000000,0.000379506963233
15768000000,0.000351821904646
15778000000,0.000324660864625
15786000000,0.000299877889363
15797000000,0.000277995075072
15808000000,0.000231906913307
15816000000,0.000150583240297
15828000000,7.5955874233e-05
15837000000,8.27787134118e-06
15847000000,-5.7756636641e-05
15856000000,-0.00012007918257
15867000000,-0.000175201660133
15875000000,-0.000223416038079
15888000000,-0.000286413998474
15896000000,-0.000356085456347
15907000000,-0.000417842513943
15918000000,-0.000471978494423
15928000000,-0.000512687827631
15938000000,-0.000547015607508
15949000000,-0.000575559746227
15957000000,-0.000592233314818
15968000000,-0.000546164864412
15976000000,-0.000500050752849
15987000000,-0.00045493294711
15997000000,-0.000412209883851
16009000000,-0.000377098578376
16017000000,-0.000344419981287
16028000000,-0.00031439072841
16035000000,-0.000287122401557
16046000000,-0.000262249316569
16058000000,-0.000240099649059
16067000000,-0.000220626284045
16078000000,-0.000203696575875
16088000000,-0.0001869847466
16097000000,-0.000172079004775
16108000000,-0.000159368993992
16117000000,-0.000148674037597
16128000000,-0.000137136628179
16138000000,-0.000126280911536
16147000000,-0.000117128157275
16158000000,-0.000109522091644
16170000000,-6.15984399843e-05
16178000000,-1.27623066458e-05
16188000000,3.18268893235e-05
16198000000,7.20709566781e-05
16210000000,0.00011897218189
16213000000,0.000162188298585
16228000000,0.000200546147442
16237000000,0.000234216743042
16248000000,0.000284569573666
16257000000,0.000329479474589
16266000000,0.000369094070323
16269000000,0.000403971325845
16287000000,0.00043689576858
16297000000,0.000465207735081
16307000000,0.000489250913815
16318000000,0.00049905171313
16326000000,0.000465636185934
16337000000,0.000432232209842
16346000000,0.000399585749363
16358000000,0.000369599509856
16376000000,0.00034435508788
16378000000,0.000320870793324
16387000000,0.000299298827501
16397000000,0.0002796217086
16407000000,0.000261818917024
16416000000,0.000246004398998
16427000000,0.000232110826985
16436000000,0.000219857950267
16447000000,0.000207708757677
16457000000,0.000197249019371
16466000000,0.000188352084921
16477000000,0.000179819748559
16488000000,0.000171088066951
16498000000,0.000163683704663
16506000000,0.000157491248204
16517000000,0.000137214314571
16528000000,9.66221621939e-05
16536000000,5.92915287741e-05
16548000000,2.53654169745e-05
16557000000,-7.91823151118e-06
16566000000,-4.40092501675e-05
16576000000,-7.62349711179e-05
16584000000,-0.000104692700082
16596000000,-0.000137525011871
16607000000,-0.000178299398911
16616000000,-0.000214642979288
16624000000,-0.000246680160891
16637000000,-0.000273716159393
16647000000,-0.00029563867262
16657000000,-0.000314114504085
16668000000,-0.000329459744447
16677000000,-0.000334074506329
16687000000,-0.000305794883573
16692000000,-0.000277749262006
16704000000,-0.000250514650665
16715000000,-0.000225534201721
16727000000,-0.000203529370867
16736000000,-0.000183144135013
16747000000,-0.000164490958011
16757000000,-0.000146363644276
16768000000,-0.000129789391272
16776000000,-0.000115063589935
16783000000,-0.000101583223811
16795000000,-8.76865861486e-05
16809000000,-7.55449262514e-05
16817000000,-6.50578186258e-05
16828000000,-5.21154943571e-05
16836000000,-5.80215824576e-06
16848000000,3.68256448209e-05
16854000000,7.55948067065e-05
16864000000,0.000110455706946
16876000000,0.000154432268053
16886000000,0.000193886586642
16897000000,0.000228893162441
16907000000,0.000261286956112
16917000000,0.000304718925914
16926000000,0.00034330737426
16938000000,0.00037721468743
16944000000,0.000407365508973
16957000000,0.000436003995448
16968000000,0.000460582074832
16976000000,0.000481407643001
16986000000,0.000489759328275
16995000000,0.000460285200389
17008000000,0.000430827212181
17016000000,0.000402041986137
17028000000,0.000376375715234
17037000000,0.000354055946505
17046000000,0.000333282545107
17056000000,0.00031419144898
17067000000,0.00029651051051
17077000000,0.000280535395606
17089000000,0.000266333041164
17098000000,0.000253845743966
17108000000,0.000241547621852
17117000000,0.000230511338173
17126000000,0.000221006064559
17137000000,0.000212920517813
17146000000,0.000203631513242
17156000000,0.00019539926579
17167000000,0.000188409355643
17177000000,0.000182555157343
17186000000,0.000174405067231
17195000000,0.000167009144794
17206000000,0.000160671459417
17215000000,0.000155310705384
17225000000,0.0001469732852
17236000000,0.000139252241269
17250000000,0.00013253730929
17256000000,0.000126765542092
17266000000,0.000117807152622
17275000000,0.000108898298601
17287000000,0.000101048991765
17287000000,9.2486351585e-05
17308000000,8.10543557748e-05
17319000000,7.08611933865e-05
17324000000,6.18730345625e-05
17336000000,4.98108607042e-05
17352000000,3.86253069206e-05
17371000000,2.87616698251e-05
17371000000,2.01615202116e-05
17378000000,7.71619141619e-06
17387000000,-4.55053366434e-06
17400000000,-1.53842294832e-05
17408000000,-2.48475728582e-05
17417000000,-3.72947891951e-05
17428000000,-5.10633937839e-05
17438000000,-6.3262572862e-05
17449000000,-7.39511574489e-05
17457000000,-8.68282326707e-05
17469000000,-0.000101683138689
17478000000,-0.000114843528334
17489000000,-0.000126375831214
17498000000,-0.000139718134758
17508000000,-0.000154726632465
17518000000,-0.000167974262962
17555000000,-0.000179536587714
17555000000,-0.000191141457863
17555000000,-0.000204881632656
17563000000,-0.000216932512023
17571000000,-0.000227382711653
17586000000,-0.000239528039676
17586000000,-0.000251434774188
17600000000,-0.00026178069963
17607000000,-0.000270664121579
17618000000,-0.000280780111415
17627000000,-0.000289805377218
17639000000,-0.000297521810664
17647000000,-0.000304033134366
17657000000,-0.000310375988667
17668000000,-0.00031607000521
17677000000,-0.000320797837021
17688000000,-0.000324657750258
17698000000,-0.000327212113351
17707000000,-0.000328992767315
17717000000,-0.000330231733671
17728000000,-0.000331014782731
17738000000,-0.000329291815455
17750000000,-0.000326869692885
17758000000,-0.000324380349744
17767000000,-0.000321461718438
17777000000,-0.000314718129546
17787000000,-0.000308342221629
17810000000,-0.00030239816279
17810000000,-0.000272875937986
17819000000,-0.000190576486194
17827000000,-0.000113769042314
17837000000,-4.3008805481e-05
17848000000,3.27277162071e-05
17857000000,0.000112515795402
17867000000,0.000184458854474
17877000000,0.000248608746324
17892000000,0.000340162330831
17898000000,0.000437001143238
17906000000,0.000523725182701
17915000000,0.00060053541613
17925000000,0.000673305613177
17938000000,0.00073902164957
17950000000,0.000795804392387
17957000000,0.000844275513545
17968000000,0.000888846360676
17976000000,0.000928719989637
17990000000,0.000961962671254
17996000000,0.000989232667654
18008000000,0.000982138308291
18018000000,0.000906026120184
18027000000,0.000831865135174
18035000000,0.000760902274026
18048000000,0.000698464297502
18056000000,0.000642367139989
18064000000,0.000590968564193
18077000000,0.000544421868758
18086000000,0.000500745998424
18096000000,0.000461123769573
18111000000,0.000426273764368
18111000000,0.00039596428067
18127000000,0.000319773009256
18136000000,0.000229568168092
18147000000,0.000147697018285
18157000000,6.71598671432e-05
18166000000,-1.50250226192e-05
18175000000,-8.81167327601e-05
18188000000,-0.000152405857305
18197000000,-0.000219980118037
18206000000,-0.000305908596154
18217000000,-0.00038212909104
18228000000,-0.000448991172637
18237000000,-0.000506797994253
18248000000,-0.000554737256904
18257000000,-0.00059513601388
18268000000,-0.000628687263027
18281000000,-0.000648152648191
18287000000,-0.000593040042653
18295000000,-0.000537908351205
18301000000,-0.000484689721321
18317000000,-0.000439683310809
18332000000,-0.000397123919302
18338000000,-0.00035744498464
18342000000,-0.000321083074482
18358000000,-0.000288252186857
18368000000,-0.000258746414686
18378000000,-0.000232520665959
18387000000,-0.000208913534883
18398000000,-0.000187097149806
18407000000,-0.000168218167271
18418000000,-0.000152076178647
18427000000,-0.000137860752763
18438000000,-0.000123661723636
18447000000,-0.000111703051066
18457000000,-0.00010177655351
18466000000,-9.20364795661e-05
18476000000,-8.15878434619e-05
18487000000,-7.28193764343e-05
18494000000,-6.55714921677e-05
18505000000,-4.62806151756e-05
18518000000,1.49576569014e-06
18528000000,4.5435582661e-05
18530000000,8.53685015317e-05
18530000000,0.000124658305924
18557000000,0.000167499949668
18569000000,0.000205771786422
18577000000,0.00023958367746
18587000000,0.000278286863071
18597000000,0.000321350225322
18598000000,0.00035948996035
18618000000,0.000392896114435
18626000000,0.000421823622633
18637000000,0.000446573998574
18647000000,0.000467476780189
18657000000,0.000484877975928
18668000000,0.000468197560298
18678000000,0.000437643233999
18687000000,0.00040754954518
18696000000,0.000378492727254
18707000000,0.000353031667551
18717000000,0.000330599441081
18727000000,0.000309908827565
18737000000,0.000291054057236
18746000000,0.000273639500117
18758000000,0.000257685521291
18766000000,0.000243586138195
18776000000,0.000231264139268
18786000000,0.00021934886559
18796000000,0.00020782820029
18807000000,0.000197900382648
18817000000,0.000189450959354
18827000000,0.000167689987983
18838000000,0.000126581752782
18842000000,8.88918704154e-05
18842000000,5.47403659411e-05
18866000000,1.72050134528e-05
18875000000,-2.3275337402e-05
18886000000,-5.95056053129e-05
18897000000,-9.15747064875e-05
18905000000,-0.00012657770583
18915000000,-0.00016752518632
18926000000,-0.000203852511999
18934000000,-0.000235727464404
18948000000,-0.000265639584263
18956000000,-0.000294772780841
18968000000,-0.000319906053232
18978000000,-0.00034132366693
18988000000,-0.000358392880491
18997000000,-0.000370290453418
19008000000,-0.00037961452905
19017000000,-0.000386703068572
19026000000,-0.000376426896877
19038000000,-0.000342854770662
19048000000,-0.000310360796958
19058000000,-0.000279442652182
19071000000,-0.000251162359774
19076000000,-0.00022604228876
19089000000,-0.000203124704636
19099000000,-0.000182456253484
19106000000,-0.000155584992506
19116000000,-0.000112199138
19125000000,-7.26393174312e-05
19137000000,-3.69801055928e-05
19144000000,-2.23497487853e-06
19144000000,3.29485546637e-05
19164000000,6.40654258018e-05
19178000000,9.12811686187e-05
19187000000,0.000118740317307
19198000000,0.00015784292429
19208000000,0.000192592266827
19218000000,0.000223132728274
19228000000,0.000249301480392
19239000000,0.00027090191889
19248000000,0.000289114028636
19257000000,0.000304248673708
19270000000,0.00031810160457
19276000000,0.000331579153698
19288000000,0.000342665829037
19296000000,0.000351619256031
19305000000,0.000338646040656
19320000000,0.000312198663979
19329000000,0.000286514773101
19337000000,0.000262007678656
19345000000,0.000239663778474
19356000000,0.000219962688342
19367000000,0.00020195433128
19377000000,0.000185680470177
19387000000,0.000170357778341
19395000000,0.000156002908244
19407000000,0.000143368842196
19414000000,0.000132373906165
19444000000,0.000109503042996
19444000000,7.57780471489e-05
19449000000,4.50775048997e-05
19461000000,1.74467442275e-05
19461000000,-1.00794576296e-05
19481000000,-3.73458078094e-05
19486000000,-6.14284481439e-05
19497000000,-8.24625764431e-05
19507000000,-0.000111086839183
19517000000,-0.000138962768846
19527000000,-0.000163511706506
19539000000,-0.000182880285359
19547000000,-0.000199172820286
19558000000,-0.000212901593785
19568000000,-0.000224674539856
19578000000,-0.000234302971595
19588000000,-0.000242026184439
19597000000,-0.000230183681155
19607000000,-0.000210377778414
19618000000,-0.000191021672134
19629000000,-0.000172452889295
19635000000,-0.000155734394713
19647000000,-0.000140377566468
19657000000,-0.000126269651095
19668000000,-0.000113463519001
19675000000,-0.000101228275152
19675000000,-9.02486325681e-05
19696000000,-8.05701549596e-05
19696000000,-7.13861329563e-05
19717000000,-6.2307694054e-05
19728000000,-5.44300453527e-05
19738000000,-4.76764910897e-05
19748000000,-2.79502171636e-05
19756000000,-8.99162748421e-07
19768000000,2.37775349907e-05
19779000000,4.60313520863e-05
19785000000,7.10487346139e-05
19798000000,9.55757237081e-05
19805000000,0.000117376085224
19815000000,0.000136538276714
19826000000,0.000160842354751
19835000000,0.000184202687325
