%time,field
16696000000,0.0021504899497
16704000000,0.00205384009135
16717000000,0.00192357769835
16725000000,0.00180559588291
16734000000,0.00147883140874
16746000000,0.00067441820055
16754000000,-7.246659764e-05
16768000000,-0.000769807474529
16778000000,-0.00151200990174
16786000000,-0.00218218011011
16793000000,-0.00278057953831
16806000000,-0.0033090157354
16813000000,-0.00407048284268
16826000000,-0.00475063433
16836000000,-0.00535146097525
16845000000,-0.0058763308437
16856000000,-0.00631967204222
16863000000,-0.00669287750468
16873000000,-0.00700588264879
16885000000,-0.00726442683546
16892000000,-0.00718142537308
16902000000,-0.00664455025186
16915000000,-0.00611631947989
16924000000,-0.00560671027157
16933000000,-0.00515510971932
16946000000,-0.00475372616722
16955000000,-0.0043837099555
16964000000,-0.0040466962851
16973000000,-0.00372927256867
16983000000,-0.00344252550735
16998000000,-0.00318917294966
17005000000,-0.00296309738618
17015000000,-0.00272625016439
17024000000,-0.00252026671101
17033000000,-0.00234322058637
17045000000,-0.00216282438291
17054000000,-0.0019793271472
17067000000,-0.00182178611448
17073000000,-0.00168821054103
17085000000,-0.000938325648252
17093000000,-0.000177555317896
17104000000,0.000517404391339
17115000000,0.00121881992434
17125000000,0.00187990912727
17136000000,0.00246847938019
17143000000,0.00308610852336
17157000000,0.00385681986559
17164000000,0.00454398767677
17176000000,0.00514991883748
17183000000,0.00567155647969
17195000000,0.00606189033968
17206000000,0.00638852851213
17217000000,0.00665766448105
17225000000,0.00633512103085
17234000000,0.0058679950947
17246000000,0.00540656954416
17256000000,0.00496500850946
17265000000,0.0045890469548
17278000000,0.00423664660568
17286000000,0.00391069113553
17294000000,0.00360875846278
17304000000,0.00332989323934
17314000000,0.00308041487098
17323000000,0.00284991453307
17332000000,0.00262537812898
17344000000,0.00242894198977
17353000000,0.00225903477222
17366000000,0.00208566554067
17374000000,0.00192983345001
17381000000,0.00179699846391
17391000000,0.00168526336794
17403000000,0.00155943541735
17412000000,0.00143887096755
17421000000,0.00133664771593
17434000000,0.00125115460213
17444000000,0.00114609329586
17456000000,0.00102277114595
17465000000,0.000915796517377
17475000000,0.000824104695398
17485000000,0.000687949844858
17493000000,0.000553889230939
17495000000,0.000436300730306
17495000000,0.00012232276842
17495000000,-0.000653470101953
17532000000,-0.00137133663931
17533000000,-0.00202746083311
17553000000,-0.00263567340072
17553000000,-0.00323998714532
17572000000,-0.00377790536797
17584000000,-0.0042514546801
17595000000,-0.0047145862689
17604000000,-0.00531559570715
17616000000,-0.00584769307188
17622000000,-0.00631355776087
17634000000,-0.00657733901446
17644000000,-0.00623726809529
17651000000,-0.00588680595045
17663000000,-0.0055360098964
17673000000,-0.00519909958277
17685000000,-0.00493240883845
17691000000,-0.00468015206417
17700000000,-0.00444477008196
17705000000,-0.00422795319193
17705000000,-0.00402496820167
17705000000,-0.00384207680238
17744000000,-0.00367910917112
17753000000,-0.00353194991182
17753000000,-0.00337242261616
17773000000,-0.00323238232333
17793000000,-0.00311083684105
17800000000,-0.00298806198368
17803000000,-0.0028552674979
17803000000,-0.0027399284789
17824000000,-0.00264092769249
17833000000,-0.00252562427688
17845000000,-0.00239536052602
17856000000,-0.00228157274475
17866000000,-0.00202663089538
17875000000,-0.00118471260146
17883000000,-0.000403976573792
17896000000,0.000311057119485
17904000000,0.000982188603123
17907000000,0.00167711585874
17907000000,0.00229820573579
17929000000,0.00284721361186
17941000000,0.00371594339536
17953000000,0.0044959198571
17966000000,0.00518848291256
17974000000,0.00574602243412
17982000000,0.00621412094454
17992000000,0.0066114691256
18004000000,0.00694416137116
18012000000,0.00723084917454
18024000000,0.0074676452639
18034000000,0.00765730877254
18041000000,0.00780557181604
18056000000,0.00755715342273
18066000000,0.00694768476202
18072000000,0.00635845612874
18081000000,0.00579835300595
18095000000,0.00529040539145
18104000000,0.0048319970835
18115000000,0.00441391082027
18125000000,0.0040369618565
18127000000,0.0036685699567
18127000000,0.00332834438821
18156000000,0.00302909851211
18156000000,0.00269288165287
18168000000,0.0017318594086
18185000000,0.000850300924224
18195000000,5.1124533338e-05
18203000000,-0.000719663335859
18215000000,-0.00148548977847
18224000000,-0.00216440734589
18235000000,-0.0027596525483
18245000000,-0.00356621052667
18254000000,-0.00435211504159
18265000000,-0.00504541777594
18273000000,-0.00563069928611
18281000000,-0.00608946070593
18295000000,-0.00647494718933
18303000000,-0.00679406162532
18314000000,-0.00705187870217
18325000000,-0.00724995016629
18336000000,-0.00740242983328
18345000000,-0.00751555799102
18355000000,-0.00746012160322
18364000000,-0.00685818646058
18374000000,-0.00627418212176
18386000000,-0.0057173700846
18396000000,-0.00519950717001
18404000000,-0.00473126578314
18414000000,-0.00430308862858
18424000000,-0.00391607259211
18435000000,-0.00352663867754
18445000000,-0.00317997326379
18455000000,-0.00279659515189
18466000000,-0.00177215875457
18475000000,-0.000831774911574
18483000000,2.12934905492e-05
18494000000,0.00083102974733
18504000000,0.00161852306254
18511000000,0.00231553641389
18526000000,0.00292566394489
18531000000,0.00356079190957
18546000000,0.00435665855569
18555000000,0.0050598434878
18565000000,0.00567423242136
18575000000,0.00613512795242
18584000000,0.00649316942885
18595000000,0.00678629640424
18603000000,0.00702169996116
18615000000,0.00658270986359
18627000000,0.00606964524272
18635000000,0.0055657276842
18647000000,0.0050802996318
18656000000,0.00466754536806
18668000000,0.00428226196409
18673000000,0.0039272428012
18684000000,0.00359014596365
18696000000,0.00328278672569
18703000000,0.00300854643192
18718000000,0.00276302439952
18725000000,0.0025176633316
18735000000,0.00230343249995
18744000000,0.00211851815699
18752000000,0.00194614570668
18767000000,0.00176574270685
18776000000,0.00161108799764
18784000000,0.00148019068003
18796000000,0.00132927244054
18808000000,0.00119021105716
18815000000,0.0010720146467
18825000000,0.000966398012524
18835000000,0.000821410290564
18846000000,0.000695765129808
18853000000,0.000588182733117
18865000000,0.000490783283746
18876000000,0.000352228840498
18880000000,0.000231192276053
18895000000,0.000126665171648
18906000000,2.94412271201e-05
18911000000,-0.000126131720214
18926000000,-0.000263921224011
18937000000,-0.000384602299904
18945000000,-0.000548307460133
18953000000,-0.000707797843203
18966000000,-0.00084843612832
18976000000,-0.000971070866885
18986000000,-0.00113149257061
18993000000,-0.00128624357207
19002000000,-0.00142199555504
19012000000,-0.00155494755496
19025000000,-0.00172949619542
19034000000,-0.00188386677487
19046000000,-0.00201887940123
19056000000,-0.00218415447139
19061000000,-0.00235035687927
19073000000,-0.00249626771877
19084000000,-0.00262291186312
19104000000,-0.00278187145979
19106000000,-0.00293344344278
19115000000,-0.00306562512891
19126000000,-0.00317956268709
19131000000,-0.00327656516764
19146000000,-0.00597436141879
19161000000,-0.0110529113118
19167000000,-0.0157823867011
19174000000,-0.0201309130436
19175000000,-0.0226118401391
19196000000,-0.0233453731921
19205000000,-0.0238717877455
19213000000,-0.0242231829986
19232000000,-0.0244287799678
19235000000,-0.0234356159519
19244000000,-0.0182033256123
19252000000,-0.0132258745193
19271000000,-0.00856069274394
19272000000,-0.00325728401983
19284000000,0.00386319982396
19300000000,0.00889957675002
19307000000,0.013417437784
19315000000,0.0174255762961
19327000000,0.0189906341807
19332000000,0.0199961271348
19343000000,0.0201543592208
19356000000,0.0195576183247
19364000000,0.0188305133103
19373000000,0.0174314975344
19382000000,0.0156369800249
19393000000,0.0137191346279
19405000000,0.0114940471538
19412000000,0.0093998847086
19424000000,0.00858523863043
19433000000,0.00813979950101
19446000000,0.00776705412423
19454000000,0.00743819063514
19467000000,0.00714799904365
19475000000,0.00691231692901
19484000000,0.00672485465163
19493000000,0.00591192439095
19507000000,0.00501287828806
19517000000,0.00420101667167
19528000000,0.00347604758872
19532000000,0.00283576130907
19543000000,0.00202860055101
19553000000,0.000748689674398
19570000000,-0.000408758438046
19576000000,-0.00144377209036
19586000000,-0.00235911818417
19595000000,-0.00317712652967
19605000000,-0.00395382625785
19613000000,-0.00462427913413
19626000000,-0.00519599407745
19635000000,-0.00567709574885
19643000000,-0.00607600702376
19656000000,-0.00640120674843
19665000000,-0.00581057218382
19673000000,-0.00512180180165
19684000000,-0.0044475306391
19692000000,-0.00379977581019
19705000000,-0.00318741664634
19717000000,-0.00261665964695
19727000000,-0.00123620680255
19736000000,4.71444645683e-05
19747000000,0.00122316059504
19755000000,0.00228826504471
19765000000,0.00235822349809
19776000000,0.00215681967238
19785000000,0.00192468286116
19795000000,0.00134012918046
19804000000,-0.000533584875361
19816000000,-0.0023067522188
19824000000,-0.00396098214148
19835000000,-0.00548445454712
19846000000,-0.0053030702151
19859000000,-0.00442135051005
19865000000,-0.00355025904233
19879000000,-0.00270705071752
19885000000,-0.0015772741011
19893000000,0.000759232289113
19907000000,0.00293913661588
19917000000,0.00494681648134
19926000000,0.00543537873252
19937000000,0.00526151418636
19945000000,0.00503292721753
19959000000,0.00476633643413
19965000000,0.00447576682605
19973000000,0.00417279875833
19988000000,0.00251514951328
19998000000,0.000797136623661
20006000000,-0.000808516712889
20020000000,-0.00152267033299
20024000000,-0.00196468476201
20035000000,-0.0023373285359
20047000000,-0.00264696694791
20055000000,-0.0020120265616
20063000000,-0.00116374779622
20074000000,-0.000345779279259
20087000000,0.000429984843282
20097000000,0.00129808906594
20107000000,0.00224092178455
20114000000,0.00310614711978
20126000000,0.00389084496667
20137000000,0.00246747160413
20146000000,0.000862422523511
20157000000,-0.000658720842578
20166000000,-0.00207967287986
20175000000,-0.00343627160668
20187000000,-0.00478056653272
20193000000,-0.00599648739037
20205000000,-0.00708401393121
20210000000,-0.00628572494282
20224000000,-0.00473682161574
20234000000,-0.00324054581837
20242000000,-0.0018192541884
20251000000,-0.000488889030016
20264000000,0.000740053308741
20272000000,0.00186156399208
20285000000,0.00293571743659
20295000000,0.00444419358233
20307000000,0.00580889220679
20311000000,0.00702971067432
20327000000,0.00613505177556
20334000000,0.0032513282242
20342000000,0.000497266930705
20359000000,-0.00209287489263
20365000000,-0.00425289604834
20375000000,-0.00587077904428
20385000000,-0.00731902956401
20396000000,-0.00860113270633
20407000000,-0.00972357340879
20414000000,-0.00691360229982
20423000000,-0.00419213668578
20435000000,-0.00160135901269
20446000000,0.00127846956595
20455000000,0.00460832897952
20465000000,0.0076737218209
20476000000,0.0104620470069
20486000000,0.00897657331603
20494000000,0.00702212476712
20506000000,0.00510065445646
20517000000,0.00324819136532
20524000000,0.00149159036174
20536000000,-0.000150131280244
20546000000,-0.00359271675991
20553000000,-0.00678964204305
20566000000,-0.0097167458513
20574000000,-0.0123656660211
20588000000,-0.0147360320412
20597000000,-0.0168337840096
20604000000,-0.0152750147497
20614000000,-0.0128303065562
20624000000,-0.0104409488465
20635000000,-0.00814868840678
20644000000,-0.00598428133765
20653000000,-0.00396910779967
20664000000,-0.00130958012433
20674000000,0.00427837794412
20684000000,0.00944764235255
20697000000,0.0141711771691
20704000000,0.0156206796647
20713000000,0.016097233521
20720000000,0.0163656205897
20735000000,0.0164639314294
20746000000,0.0138055190078
20755000000,0.00864195815669
20765000000,0.00373470116448
20775000000,-0.000860758871254
20786000000,-0.00510764097265
20795000000,-0.0082397003207
20805000000,-0.00994839595918
20812000000,-0.0113985824535
20826000000,-0.012612575227
20833000000,-0.013613251915
20843000000,-0.00922664790101
20854000000,-0.00369426939729
20863000000,0.00154743633248
20873000000,0.00644265653195
20884000000,0.0108050472023
20894000000,0.0147371691684
20906000000,0.0182724496021
20916000000,0.0214158287756
20925000000,0.0182771124098
20934000000,0.0136936331164
20943000000,0.00926701332844
20955000000,0.00506312946497
20963000000,0.0011289152283
20974000000,-0.00250466884734
20983000000,-0.00581998346069
20993000000,-0.0106509300192
21004000000,-0.0154968018244
21015000000,-0.0198739905868
21022000000,-0.0237837967219
21034000000,-0.0272377080245
21045000000,-0.0268973901945
21055000000,-0.0214354788415
21064000000,-0.0149544911598
21076000000,-0.00422734309307
21082000000,0.00428039798245
21095000000,0.00604843394384
21106000000,0.00750015121356
21115000000,0.00545338447095
21124000000,0.000213976672495
21135000000,-0.00226634420825
21146000000,-0.000884695417208
21157000000,0.000410027141323
21164000000,0.00289178043378
21173000000,0.0102007083771
21182000000,0.0170100548884
21197000000,0.0232731559259
21203000000,0.0289655772407
21213000000,0.0311457296474
21213000000,0.0300698141196
21213000000,0.0288207752783
21244000000,0.0274632626707
21253000000,0.0260506589008
21274000000,0.0246262851163
21276000000,0.0184111297209
21284000000,0.00783926372227
21293000000,-0.00204460309412
21305000000,-0.0111650340343
21316000000,-0.0194796228002
21321000000,-0.026972972132
21332000000,-0.0315556022441
21341000000,-0.0349523150497
21356000000,-0.0377698708068
21365000000,-0.0400679505203
21372000000,-0.0419051909334
21386000000,-0.0370831482903
21408000000,-0.0282183453967
21408000000,-0.0197332906545
21421000000,-0.0117375522346
21425000000,-0.00217755821595
21436000000,0.00871976025489
21446000000,0.0137474723674
21456000000,0.0131779738129
21467000000,0.012312207794
21476000000,0.00888879408296
21485000000,0.00317584715243
21490000000,-0.00232179844283
21504000000,-0.00385654158227
21514000000,-0.00168446088457
21515000000,0.00039834617009
21534000000,0.00295326303338
21545000000,0.0105013149062
21557000000,0.0175467012119
21566000000,0.0194307948802
21573000000,0.0190838193832
21587000000,0.0129751612636
21593000000,0.00648651903132
21606000000,0.000347490643336
21616000000,-0.00488616992315
21621000000,-0.00537865554848
21632000000,-0.00569177817266
21647000000,-0.00585665464192
21656000000,-0.0012314837146
21660000000,0.00434711540985
21674000000,0.00960854458105
21676000000,0.01284633969
21695000000,0.0141690263081
21705000000,0.0134239729163
21715000000,0.00836288758773
21725000000,0.00352252785218
21732000000,-0.00103551773825
21747000000,-0.00438229229201
21753000000,-0.00656683908553
21764000000,-0.00850222096271
21772000000,-0.00446949321088
21776000000,-0.000557297468111
21797000000,0.0031723108223
21806000000,0.00626184591476
21812000000,0.00893588153701
21828000000,0.0113740374101
21836000000,0.0123809889815
21845000000,0.00857842181647
21855000000,0.00490852915865
21866000000,0.00142534699321
21879000000,-0.00254938516512
21886000000,-0.00727907585676
21894000000,-0.0116306932354
21904000000,-0.0155868977801
21917000000,-0.0147807100201
21926000000,-0.0120180414859
21935000000,-0.00928575028744
21945000000,-0.005900626602
21955000000,0.000190787257669
21963000000,0.00590023996215
21973000000,0.0111808074782
21984000000,0.0113745851322
21996000000,0.0102505024834
22004000000,0.00904876380657
22015000000,0.00781270644273
22026000000,0.00657726686776
22037000000,0.0053699686312
22046000000,0.000722916699366
22053000000,-0.00510827378166
22065000000,-0.0105340178735
22075000000,-0.0150554695612
22084000000,-0.0150837360269
22093000000,-0.0149274965053
22105000000,-0.0146294300091
22114000000,-0.0142262582863
22125000000,-0.00835791417076
22133000000,-0.00145214623679
22144000000,0.00502703419679
22153000000,0.011025049568
22169000000,0.0137955281105
22176000000,0.0159084244073
22185000000,0.0176996693359
22195000000,0.0191973122302
22204000000,0.0126749928872
22215000000,0.00554446603346
22225000000,-0.00081117824675
22236000000,-0.00648372265885
22244000000,-0.0117050517923
22255000000,-0.014592726299
22262000000,-0.0097217339836
22274000000,-0.00495661720378
22286000000,-0.000381862029295
22295000000,0.00394037087909
22304000000,0.00796681006581
22315000000,0.0127062295483
22325000000,0.0171576049124
22334000000,0.0211891465044
22345000000,0.0247995258827
22355000000,0.0197026267274
22365000000,0.012685825986
22376000000,0.0059891512248
22387000000,-0.000305372251158
22395000000,-0.0100968506568
22405000000,-0.0195863975112
22414000000,-0.0282701180017
22423000000,-0.0350682457709
22433000000,-0.031840940645
22443000000,-0.0284378399388
22454000000,-0.0249725514887
22463000000,-0.0215358087626
22472000000,-0.0181984873437
22484000000,-0.00959173291557
22495000000,0.00202357321792
22504000000,0.0128306059854
22514000000,0.0227587876549
22526000000,0.0261798697802
22537000000,0.0253773709663
22548000000,0.0242748624263
22556000000,0.0229606163654
22565000000,0.014231279909
22579000000,0.00282138936698
22589000000,-0.00792560817748
22594000000,-0.012876615615
22603000000,-0.0160788449048
22615000000,-0.0188483159999
22624000000,-0.0180626750015
22633000000,-0.00992497677081
22644000000,-0.00210506878173
22655000000,0.00528923960237
22665000000,0.0121826831988
22674000000,0.0155807526173
22684000000,0.0178630958738
22694000000,0.0198104474496
22704000000,0.0152217183231
22717000000,0.00662784840839
22722000000,-0.00153511341644
22734000000,-0.00917571473603
22745000000,-0.0158811754329
22751000000,-0.0211887742137
22767000000,-0.0259388486446
22772000000,-0.0301431373882
22782000000,-0.0306710960803
22794000000,-0.023722098152
22805000000,-0.0169657495017
22813000000,-0.0105124019391
22825000000,-0.00444227956277
22835000000,0.00398802109563
22844000000,0.0117773664264
22854000000,0.0188871539161
22865000000,0.0214225238494
22873000000,0.0178244705496
22884000000,0.0141676435183
22893000000,0.0105463771782
22904000000,0.00703419885623
22914000000,0.00368662595877
22923000000,0.000543729697246
22932000000,-0.00236749422647
22945000000,-0.00806013157382
22957000000,-0.0152859061353
22958000000,-0.0219274611415
22973000000,-0.0279599205066
22983000000,-0.0260995298805
22994000000,-0.0210279839887
23004000000,-0.0160592951195
23013000000,-0.0112829798342
23023000000,-0.00390653569781
23034000000,0.00722661172143
23044000000,0.0175690630002
23055000000,0.0270567739575
23065000000,0.0356583795085
23074000000,0.0433690217739
23082000000,0.0421942010554
23095000000,0.0387059630982
23104000000,0.0350914027848
23115000000,0.0314581641342
23125000000,0.0278915077115
23135000000,0.0223504926162
23143000000,0.00890419676902
23155000000,-0.00368099518516
23163000000,-0.0153057586816
23173000000,-0.0259136197409
23185000000,-0.0305631547141
23194000000,-0.0332765769116
23206000000,-0.0353975678361
23213000000,-0.0370041672146
23222000000,-0.0381694025768
23234000000,-0.0389607253489
23244000000,-0.0301345025517
23259000000,-0.0206050440801
23266000000,-0.0115708600438
23276000000,-0.0031292309831
23286000000,0.00476968096125
23300000000,0.0129636328011
23309000000,0.0203857627225
23314000000,0.0270335476158
23324000000,0.0329223525735
23332000000,0.0287758603123
23344000000,0.0234922406906
23355000000,0.0182669806451
23362000000,0.0132047264799
23369000000,0.00635820883883
23376000000,-0.00303187229794
23392000000,-0.0117647921847
23404000000,-0.0197843362995
23415000000,-0.0260942244615
23422000000,-0.0232282979057
23431000000,-0.0202092355777
23445000000,-0.0171373041243
23453000000,-0.0140925170165
23465000000,-0.00363286823482
23473000000,0.00623491497316
23485000000,0.0154153222635
23493000000,0.0182929352547
23505000000,0.0184042500665
23514000000,0.0182566193646
23524000000,0.0179082333156
