%time,field
15345000000,0.00258997541472
15356000000,0.00239379208018
15365000000,0.00221767202381
15375000000,0.00203865727951
15393000000,0.00187771832561
15398000000,0.00171181980476
15408000000,0.0015595632375
15414000000,0.00141505752563
15425000000,0.00129205653254
15435000000,0.00117338047153
15445000000,0.00105097622853
15455000000,0.000946994119452
15466000000,0.000817464866124
15476000000,0.000687965299697
15485000000,0.000576056800111
15496000000,0.000465123548959
15505000000,0.000335139427464
15515000000,0.000222015747107
15522000000,0.000124724372799
15535000000,-0.000103483789876
15545000000,-0.000877098940231
15555000000,-0.00161572108212
15564000000,-0.00232402209656
15576000000,-0.00296635359697
15583000000,-0.00372240903465
15596000000,-0.00451955330742
15605000000,-0.00522483536447
15614000000,-0.00581294823378
15625000000,-0.00632596999194
15635000000,-0.0067683224407
15646000000,-0.0071234099587
15654000000,-0.00739852509794
15663000000,-0.00762192815035
15674000000,-0.00761948199492
15687000000,-0.00717810301346
15695000000,-0.00674190701931
15705000000,-0.00633901779958
15713000000,-0.00595363049511
15725000000,-0.00558571550945
15734000000,-0.00523263817692
15746000000,-0.00490846821792
15754000000,-0.00460281004729
15766000000,-0.00430188852189
15775000000,-0.00381341645494
15788000000,-0.00286973271739
15794000000,-0.00200164761909
15805000000,-0.00110511495346
15815000000,-0.000250067034965
15824000000,0.000515948699268
15833000000,0.00134225089726
15843000000,0.00229159557947
15855000000,0.00314538704203
15864000000,0.00390584023707
15877000000,0.00460189168032
15883000000,0.00527808338412
15897000000,0.00586314035544
15905000000,0.00636328922179
15915000000,0.00668416258619
15925000000,0.00692916901582
15932000000,0.00711798184721
15944000000,0.0066336563193
15955000000,0.00599593310977
15964000000,0.00537554335282
15975000000,0.00481010619884
15985000000,0.00428943766188
15995000000,0.00380620122371
16005000000,0.00335172585167
16015000000,0.00293680935551
16023000000,0.00256468887757
16034000000,0.00221942456297
16045000000,0.0019057099582
16054000000,0.00162457076158
16065000000,0.00135240380695
16075000000,0.00111750700335
16086000000,0.000917242336156
16095000000,0.000734418485753
16105000000,0.000567604253692
16116000000,0.000420497178848
16126000000,0.000267760518074
16133000000,0.000139628425464
16147000000,3.02000132808e-05
16153000000,-9.02567704826e-05
16178000000,-0.000190956181217
16178000000,-0.000273824508485
16187000000,-0.000359499564776
16195000000,-0.000448283632012
16205000000,-0.000522426722808
16214000000,-0.000605065223798
16225000000,-0.000679919681149
16236000000,-0.000742575708327
16243000000,-0.000799673484925
16255000000,-0.000893003561228
16268000000,-0.000974452098928
16275000000,-0.00104471941545
16285000000,-0.00111616400933
16295000000,-0.00120333472034
16305000000,-0.00129707467264
16315000000,-0.00140509231937
16325000000,-0.00151434221726
16336000000,-0.00161971849208
16346000000,-0.00171232431416
16355000000,-0.00180057516764
16365000000,-0.00188837491579
16375000000,-0.00197558412816
16385000000,-0.00206747722368
16395000000,-0.00214750500745
16405000000,-0.00221638602712
16416000000,-0.00228530318824
16425000000,-0.00234842141344
16436000000,-0.00240201546013
16445000000,-0.00245069538765
16455000000,-0.002506072497
16464000000,-0.00255325334576
16475000000,-0.00259394034033
16485000000,-0.00263674145395
16495000000,-0.00267281451825
16505000000,-0.00270277268925
16516000000,-0.00272817395418
16525000000,-0.00274874185028
16535000000,-0.00276495528157
16544000000,-0.00277565493347
16554000000,-0.00277647883799
16564000000,-0.00277503522721
16573000000,-0.0027682038729
16585000000,-0.00274612982848
16596000000,-0.00272422739142
16603000000,-0.00270007945189
16615000000,-0.0026518959647
16624000000,-0.00260665454108
16637000000,-0.00256473269207
16646000000,-0.00252635805615
16646000000,-0.00246357973663
16660000000,-0.00240311042944
16674000000,-0.00234833844953
16683000000,-0.00224476539844
16694000000,-0.00215010523327
16704000000,-0.00205344460496
16709000000,-0.00192317167438
16709000000,-0.00180517970609
16733000000,-0.0014784055709
16744000000,-0.000673983065883
16755000000,7.29105832694e-05
16768000000,0.000770259715301
16778000000,0.00151246972743
16786000000,0.00218264680303
16795000000,0.00278105233898
16806000000,0.00330949386351
16816000000,0.00407096558019
16826000000,0.00475112097884
16836000000,0.00535195080192
16845000000,0.00587682311577
16854000000,0.00632016605965
16864000000,0.00669337262487
16876000000,0.00700637830869
16885000000,0.00726492255625
16897000000,0.00718192075349
16906000000,0.0066450449663
16917000000,0.00611681333559
16923000000,0.00560720315173
16937000000,0.00515560156628
16946000000,0.00475421696696
16957000000,0.00438419973417
16967000000,0.00404718510023
16977000000,0.00372976049871
16986000000,0.0034430126376
16995000000,0.00318965936581
17005000000,0.00296358317988
17015000000,0.00272673544251
17020000000,0.00252075160239
17033000000,0.00234370522841
17044000000,0.00216330891358
17056000000,0.00197981169744
17067000000,0.00182227078424
17073000000,0.00168869541259
17085000000,0.00093881090979
17093000000,0.000178041275098
17093000000,-0.000516917528059
17093000000,-0.00120843435761
17093000000,-0.00187002382594
17133000000,-0.00245919303755
17145000000,-0.00307748733717
17157000000,-0.00384890256299
17166000000,-0.00453679030103
17173000000,-0.00514343898919
17183000000,-0.0056657770745
17197000000,-0.00605678293327
17205000000,-0.00638405617246
17217000000,-0.00665378425947
17227000000,-0.00633178610266
17236000000,-0.00586515648508
17245000000,-0.00540417755778
17256000000,-0.00496301394863
17265000000,-0.00458740206791
17279000000,-0.00423530581541
17286000000,-0.00390961156454
17294000000,-0.00360790029848
17306000000,-0.00332921996474
17314000000,-0.0030798933845
17326000000,-0.0028495151678
17335000000,-0.00262507458913
17347000000,-0.00242871123603
17356000000,-0.00225885685757
17366000000,-0.00208552340286
17375000000,-0.0019297126773
17385000000,-0.00179688706792
17396000000,-0.00168515155394
17406000000,-0.00155931535253
17414000000,-0.00143873655959
17421000000,-0.00133649440938
17436000000,-0.00125097916007
17446000000,-0.00114589359775
17456000000,-0.00102254599404
17465000000,-0.000915545491652
17475000000,-0.000823828013142
17485000000,-0.000687648225757
17499000000,-0.000553563779223
17505000000,-0.000435952841235
17515000000,-0.000188992065022
17522000000,0.000589828327704
17535000000,0.00131147491846
17543000000,0.00197190017956
17556000000,0.00258473878579
17565000000,0.00319384001156
17575000000,0.00373657305813
17584000000,0.00421485681169
17596000000,0.00468255809674
17605000000,0.00528790862796
17616000000,0.00582407225804
17626000000,0.00629369727815
17635000000,0.00662746977263
17646000000,0.00628761607265
17654000000,0.00593626905389
17665000000,0.00558372634903
17676000000,0.00523831050842
17685000000,0.00496312658861
17695000000,0.0047083381864
17704000000,0.00447034527939
17715000000,0.00425090949662
17725000000,0.00404535481574
17735000000,0.00385998758309
17744000000,0.00369467167103
17757000000,0.00354531589978
17765000000,0.00338375999002
17774000000,0.00324186829441
17784000000,0.00311865228853
17795000000,0.00299438688482
17802000000,0.00286027731085
17815000000,0.0027437913278
17825000000,0.00264380227084
17835000000,0.00252765837276
17846000000,0.0023966900783
17855000000,0.00228232130579
17866000000,0.00202690950095
17875000000,0.00118462016831
17886000000,0.000403600100282
17895000000,-0.000311642115901
17906000000,-0.00098291740321
17915000000,-0.00167793371847
17926000000,-0.00229906707872
17935000000,-0.00284808117165
17945000000,-0.00371678721568
17954000000,-0.00449671650467
17964000000,-0.00518921475343
17975000000,-0.00574667685119
17986000000,-0.00621468959587
17992000000,-0.00661194723766
18004000000,-0.00694454711466
18013000000,-0.00723114309215
18024000000,-0.007467849771
18034000000,-0.0076574277229
18045000000,-0.00780561012007
18056000000,-0.0075571167256
18064000000,-0.00694757911797
18075000000,-0.00635828777785
18087000000,-0.00579812824604
18095000000,-0.00529013043492
18106000000,-0.00483167794042
18116000000,-0.00441355320218
18125000000,-0.00403657111862
18134000000,-0.00366815105942
18145000000,-0.00332790187338
18156000000,-0.00302863650265
18164000000,-0.00269240383944
18174000000,-0.00173136886993
18183000000,-0.000849800254521
18195000000,-5.06160359332e-05
18204000000,0.000720177621541
18215000000,0.00148600808709
18223000000,0.00216492811124
18234000000,0.00276017440603
18245000000,0.00356673236887
18255000000,0.00435263601759
18266000000,0.00504593714657
18276000000,0.00563121641728
18285000000,0.00608997505213
18296000000,0.00647545832017
18303000000,0.00679456923102
18315000000,0.00705238258595
18326000000,0.00725045023345
18336000000,0.0074029260818
18346000000,0.00751605050218
18355000000,0.00746061053129
18363000000,0.00685867204805
18374000000,0.00627466472444
18386000000,0.0057178500938
18396000000,0.00519998498876
18406000000,0.00473174180806
18415000000,0.00430356323583
18424000000,0.00391654612772
18435000000,0.00352711145212
18442000000,0.00318044554667
18455000000,0.0027970671798
18466000000,0.00177263092852
18473000000,0.000832247683984
18486000000,-2.08197917437e-05
18496000000,-0.000809298514597
18506000000,-0.00159776013154
18515000000,-0.00229597742399
18523000000,-0.00290747168902
18533000000,-0.00354406750164
18543000000,-0.00434145157446
18553000000,-0.00504616138727
18565000000,-0.00566204886326
18575000000,-0.00612439016301
18584000000,-0.00648380463888
18594000000,-0.00677821737758
18607000000,-0.00701480974196
18615000000,-0.00657690581102
18627000000,-0.00606482227675
18635000000,-0.00556178099135
18646000000,-0.00507712685358
18656000000,-0.00466504828508
18666000000,-0.00428034775092
18673000000,-0.00392582490435
18684000000,-0.00358914467653
18694000000,-0.00328212951265
18707000000,-0.00300816803711
18718000000,-0.00276286677221
18726000000,-0.00251767540785
18734000000,-0.00230356987797
18745000000,-0.00211874269636
18757000000,-0.00195107154011
18767000000,-0.00177048786663
18773000000,-0.00161557802948
18786000000,-0.00148437150745
18796000000,-0.00133310741697
18808000000,-0.00119367824759
18813000000,-0.00107510434395
18825000000,-0.00096911048108
18838000000,-0.000823753741125
18843000000,-0.000697753943291
18855000000,-0.00058983592467
18863000000,-0.000492123172128
18876000000,-0.000353279907049
18888000000,-0.00023198021786
18893000000,-0.000127216114782
18906000000,-3.75847675872e-05
18911000000,0.00011850068776
18926000000,0.000256871664275
18937000000,0.000378176961233
18945000000,0.000542527241357
18953000000,0.000702665749075
18964000000,0.000843940795653
18976000000,0.000967189695276
18986000000,0.00112819446744
18993000000,0.00128349132234
19004000000,0.00141974782587
19016000000,0.00155316059767
19025000000,0.00172812527115
19036000000,0.00188286729377
19046000000,0.00201820783452
19056000000,0.00217068787238
19061000000,0.00233779028222
19077000000,0.00248469678674
19087000000,0.00261239188931
19096000000,0.00277242431433
19108000000,0.0029250638341
19114000000,0.00305828617161
19126000000,0.00317322081469
19135000000,0.00327116441059
19150000000,0.00596983783523
19161000000,0.011049197346
19167000000,0.0157794103293
19179000000,0.0201286004939
19179000000,0.0226101178045
19180000000,0.0233441689522
19205000000,0.023871033418
19216000000,0.0242228149904
19223000000,0.0244287397375
19235000000,0.0234358504012
19243000000,0.0182037913926
19252000000,0.0132265347833
19263000000,0.00856151444161
19272000000,0.00325823761374
19285000000,-0.00386213598258
19300000000,-0.00889842406791
19307000000,-0.0134162188297
19315000000,-0.017424312432
19332000000,-0.018989346201
19335000000,-0.0199948347673
19349000000,-0.0201530790188
19353000000,-0.0195563643968
19366000000,-0.0188292965982
19377000000,-0.0174303262488
19385000000,-0.0156358599465
19398000000,-0.0138248758539
19405000000,-0.0115951308416
19416000000,-0.00949509176037
19427000000,-0.00867371962787
19436000000,-0.00822101870257
19446000000,-0.00784073764399
19457000000,-0.00750427953775
19467000000,-0.00720660738181
19478000000,-0.00696369455085
19487000000,-0.00676935460133
19497000000,-0.00594997456291
19505000000,-0.00504495725997
19517000000,-0.00422763353408
19528000000,-0.00349772503426
19538000000,-0.00285302181918
19546000000,-0.00204195531778
19556000000,-0.00075862975399
19562000000,0.000401768268777
19576000000,0.00143929779321
19585000000,0.0023567594639
19595000000,0.00317651853111
19608000000,0.00395464021602
19614000000,0.00462622210225
19626000000,0.00519880795377
19635000000,0.00568055575692
19646000000,0.0060799197883
19656000000,0.00640540809292
19665000000,0.00581492470059
19675000000,0.00512619241591
19686000000,0.00445186820635
19692000000,0.00380398862504
19706000000,0.00319145005588
19717000000,0.00262047378288
19727000000,0.00131941866509
19735000000,3.14413042445e-05
19742000000,-0.0011499289934
19753000000,-0.0022208557844
19765000000,-0.0022968871574
19776000000,-0.00210162767955
19786000000,-0.00187556187913
19793000000,-0.00129689174539
19807000000,0.000571213776877
19817000000,0.00233911141299
19826000000,0.00398845410069
19834000000,0.00550744850107
19843000000,0.00532200811727
19856000000,0.00443665541912
19865000000,0.00356234609826
19876000000,0.00271631991751
19887000000,0.00158410484526
19897000000,-0.000754484711088
19907000000,-0.00293614401944
19920000000,-0.00494527948542
19923000000,-0.0054350274057
19936000000,-0.00526210807872
19943000000,-0.00503425415362
19959000000,-0.0047682113173
19965000000,-0.00447803012847
19973000000,-0.00417531476652
19984000000,-0.00251780424952
19996000000,-0.00079983580728
20007000000,0.000805849352874
20017000000,0.00152009497672
20025000000,0.00196224726715
20035000000,0.00233506257463
20047000000,0.00264489576796
20057000000,0.0020101645817
20066000000,0.00116210208234
20077000000,0.000344350897298
20087000000,-0.00043119965706
20094000000,-0.00129909781069
20107000000,-0.00224173480633
20117000000,-0.0031067769029
20126000000,-0.00389130538488
20137000000,-0.00246777714946
20146000000,-0.000862587812606
20155000000,0.000658681154892
20166000000,0.00207974437171
20177000000,0.00342175771462
20187000000,0.0047667958525
20196000000,0.0059836125625
20205000000,0.00707213785022
20212000000,0.00627490861158
20223000000,0.00472709136461
20235000000,0.00323189972468
20243000000,0.00181166771665
20252000000,0.00048232005779
20264000000,-0.000745660073699
20274000000,-0.00186627318508
20284000000,-0.00293959977422
20296000000,-0.00444732288474
20306000000,-0.0058113436161
20313000000,-0.00703155870071
20322000000,-0.00688625830688
20336000000,-0.00396676835158
20345000000,-0.00116893756253
20355000000,0.0014704393758
20364000000,0.00368301791885
20374000000,0.00535499748013
20383000000,0.00685742627967
20394000000,0.00819262329658
20404000000,0.00936616476138
20415000000,0.00660461766365
20423000000,0.00392840997997
20432000000,0.00137940032643
20445000000,-0.00146233484829
20455000000,-0.00475784486324
20467000000,-0.00779260897122
20473000000,-0.010553928457
20484000000,-0.0090449173516
20496000000,-0.00707020219745
20502000000,-0.00513150851916
20514000000,-0.00326461904092
20527000000,-0.00149613257969
20536000000,0.000155192056728
20543000000,0.00342579726505
20553000000,0.00663835745763
20560000000,0.00958117433828
20578000000,0.0122455363756
20584000000,0.0146307996909
20597000000,0.0167426975603
20603000000,0.0155941553391
20617000000,0.0131410305304
20624000000,0.01073836568
20637000000,0.00842917314157
20644000000,0.00624529702571
20656000000,0.00420904057488
20667000000,0.0015275879469
20677000000,-0.00408249884691
20687000000,-0.00927358476613
20697000000,-0.014018233789
20706000000,-0.0154878394675
20716000000,-0.0159832649259
20725000000,-0.0162691391705
20735000000,-0.0163834600335
20744000000,-0.013739537346
20755000000,-0.00858894179209
20765000000,-0.0036931564706
20771000000,0.000892268473755
20781000000,0.00513047589323
20795000000,0.00825513120117
20801000000,0.00995759392633
20812000000,0.0114026149537
20826000000,0.0126124046817
20836000000,0.0136097364571
20843000000,0.00982826786478
20853000000,0.00426232887057
20865000000,-0.00101823136702
20872000000,-0.0059557117663
20886000000,-0.0103621874037
20896000000,-0.0143389180471
20906000000,-0.0179182799402
20916000000,-0.0211043846539
20925000000,-0.0180064038634
20936000000,-0.0134612040757
20946000000,-0.00907008826715
20955000000,-0.00489873727595
20961000000,-0.000993991919864
20974000000,0.00261319626674
20984000000,0.00590512983861
20993000000,0.0107156012926
21004000000,0.015543755058
21007000000,0.0199058035032
21022000000,0.0238028493079
21035000000,0.0272461718854
21045000000,0.0268972248207
21055000000,0.0214284352089
21064000000,0.0149421163017
21073000000,0.00421099451027
21085000000,-0.0042995489823
21095000000,-0.00606940107769
21101000000,-0.00752211343481
21115000000,-0.00547566482628
21121000000,-0.000236027908357
21135000000,0.00224495466925
21146000000,0.000864299723786
21157000000,-0.000429185363418
21166000000,-0.00290953255888
21173000000,-0.0102169436617
21185000000,-0.0170247167356
21197000000,-0.0232862340708
21204000000,-0.0289770986859
21214000000,-0.0311557502984
21224000000,-0.0300784128062
21224000000,-0.0288280445246
21242000000,-0.027469303848
21253000000,-0.0260555784375
21264000000,-0.0246301912705
21273000000,-0.018414127797
21286000000,-0.00784144348817
21295000000,0.00204315435083
21305000000,0.0111642296202
21316000000,0.0194793773041
21326000000,0.0269732023204
21335000000,0.0318013037796
21345000000,0.0351855701046
21356000000,0.0379882438341
21365000000,0.0402698103314
21372000000,0.0420895840028
21386000000,0.0372496848337
21396000000,0.0283671016517
21402000000,0.0198647080382
21421000000,0.0118523511926
21426000000,0.0022766677443
21438000000,-0.00863525837899
21445000000,-0.015560443303
21456000000,-0.0149144309721
21467000000,-0.0139506717846
21476000000,-0.01041418252
21485000000,-0.00457851110571
21490000000,0.0010469634933
21505000000,0.00271090278539
21514000000,0.000666372150057
21515000000,-0.00129290695556
21535000000,-0.00373013065972
21548000000,-0.0111676459908
21557000000,-0.0181105601666
21563000000,-0.0199008008448
21575000000,-0.0194688525424
21580000000,-0.0132841199608
21596000000,-0.00672812687584
21606000000,-0.00053014640452
21616000000,0.00475450468429
21629000000,0.00529053707609
21635000000,0.00564033338269
21647000000,0.00583561366423
21656000000,0.00123519269334
21660000000,-0.00432369779358
21680000000,-0.00956986474414
21680000000,-0.0127962745522
21695000000,-0.0141109168315
21705000000,-0.0133606595443
21715000000,-0.00829674821858
21725000000,-0.00345552138009
21742000000,0.00110180781657
21747000000,0.00444661635468
21759000000,0.00662823907909
21770000000,0.00855999188954
21776000000,0.00452314884103
21784000000,0.000606536500192
21797000000,-0.00312763539913
21806000000,-0.00644683385808
21815000000,-0.0091144525684
21828000000,-0.0115436826055
21836000000,-0.0125398931431
21845000000,-0.00872536074532
21855000000,-0.00504277782957
21866000000,-0.0015465953578
21879000000,0.00244110938261
21883000000,0.00718347678155
21893000000,0.0115472644673
21904000000,0.0155149757648
21917000000,0.0147195191544
21926000000,0.0119667326315
21935000000,0.00924343566355
21947000000,0.00586640621424
21955000000,-0.000217802293347
21966000000,-0.00592091239021
21976000000,-0.0111959616828
21984000000,-0.0113849978512
21996000000,-0.0102568963259
22004000000,-0.00905180116926
22015000000,-0.00781298765348
22025000000,-0.00657532996485
22037000000,-0.00536629048853
22046000000,-0.000717913753378
22057000000,0.00511424394351
22065000000,0.010540648343
22075000000,0.0150625001742
22084000000,0.0150909480303
22097000000,0.0149347096447
22104000000,0.0146365003578
22115000000,0.0142330739189
22125000000,0.00836439294285
